Yearly Consumption (MW)
1224.067
1073.373
873.855
611.476
442.032
313.551
275.313
368.437
609.798
948.412
1227.624
1655.621
1696.193
1594.738
1531.712
1726.81
1835.531
2001.689
2161.565
2225.793
2052.493
1672.391
1295.36
1102.372
1068.248
984.764
866.18
667.724
503.255
349.291
259.95
238.241
341.101
574.233
955.852
1168.727
1234.228
1052.013
1045.79
1262.075
1506.482
1674.755
1981.144
2181.091
2026.276
1784.095
1554.689
1250.359
959.275
675.846
504.614
360.392
288.852
247.1
430.343
1221.798
2140.888
2394.122
2068.859
1660.185
1497.701
1568.177
1730.646
1617.736
1471.8
1642.459
2156.05
2703.062
2882.262
2452.754
1902.133
1523.097
1216.096
893.663
634.648
453.639
329.073
281.466
448.916
1237.482
2165.602
2464.119
2140.511
1715.137
1539.401
1612.582
1773.666
1657.371
1513.309
1666.182
2164.365
2699.549
2869.82
2435.555
1894.24
1521.061
1215.212
892.856
633.983
456.772
329.139
280.193
445.161
1225.578
2139.719
2419.199
2123.285
1723.923
1554.237
1620.767
1777.699
1651.354
1503.783
1663.168
2170.788
2695.525
2865.49
2422.163
1867.35
1502.059
1205.068
887.348
629.715
452.019
328.285
279.17
448.642
1232.076
2136.188
2410.494
2112.749
1722.478
1557.982
1618.845
1763.585
1644.319
1501.352
1661.771
2147.71
2658.647
2815.429
2375.83
1836.488
1484.162
1194.05
881.12
629.164
452.222
327.554
271.415
409.559
1080.465
1851.707
2087.853
1888.819
1610.056
1559.463
1648.484
1751.488
1622.773
1535.229
1851.058
2501.544
2940.332
2938.113
2385.084
1822.106
1491.025
1224.067
1073.373
873.855
611.476
442.032
313.551
275.313
368.437
609.798
948.412
1227.624
1655.621
1696.193
1594.738
1531.712
1726.81
1835.531
2001.689
2161.565
2225.793
2052.493
1672.391
1295.36
1102.372
1068.248
984.764
866.18
667.724
503.255
349.291
259.95
238.241
341.101
574.233
955.852
1168.727
1234.228
1052.013
1045.79
1262.075
1506.482
1674.755
1981.144
2181.091
2026.276
1784.095
1554.689
1250.359
959.275
675.846
504.614
360.392
288.852
247.1
430.343
1221.798
2140.888
2394.122
2068.859
1660.185
1497.701
1568.177
1730.646
1617.736
1471.8
1642.459
2156.05
2703.062
2882.262
2452.754
1902.133
1523.097
1216.096
893.663
634.648
453.639
329.073
281.466
448.916
1237.482
2165.602
2464.119
2140.511
1715.137
1539.401
1612.582
1773.666
1657.371
1513.309
1666.182
2164.365
2699.549
2869.82
2435.555
1894.24
1521.061
1215.212
892.856
633.983
456.772
329.139
280.193
445.161
1225.578
2139.719
2419.199
2123.285
1723.923
1554.237
1620.767
1777.699
1651.354
1503.783
1663.168
2170.788
2695.525
2865.49
2422.163
1867.35
1502.059
1205.068
887.348
629.715
452.019
328.285
279.17
448.642
1232.076
2136.188
2410.494
2112.749
1722.478
1557.982
1618.845
1763.585
1644.319
1501.352
1661.771
2147.71
2658.647
2815.429
2375.83
1836.488
1484.162
1194.05
881.12
629.164
452.222
327.554
271.415
409.559
1080.465
1851.707
2087.853
1888.819
1610.056
1559.463
1648.484
1751.488
1622.773
1535.229
1851.058
2501.544
2940.332
2938.113
2385.084
1822.106
1491.025
1224.067
1073.373
873.855
611.476
442.032
313.551
275.313
368.437
609.798
948.412
1227.624
1655.621
1696.193
1594.738
1531.712
1726.81
1835.531
2001.689
2161.565
2225.793
2052.493
1672.391
1295.36
1102.372
1068.248
984.764
866.18
667.724
503.255
349.291
259.95
238.241
341.101
574.233
955.852
1168.727
1234.228
1052.013
1045.79
1262.075
1506.482
1674.755
1981.144
2181.091
2026.276
1784.095
1554.689
1250.359
959.275
675.846
504.614
360.392
288.852
247.1
430.343
1221.798
2140.888
2394.122
2068.859
1660.185
1497.701
1568.177
1730.646
1617.736
1471.8
1642.459
2156.05
2703.062
2882.262
2452.754
1902.133
1523.097
1216.096
893.663
634.648
453.639
329.073
281.466
448.916
1237.482
2165.602
2464.119
2140.511
1715.137
1539.401
1612.582
1773.666
1657.371
1513.309
1666.182
2164.365
2699.549
2869.82
2435.555
1894.24
1521.061
1215.212
892.856
633.983
456.772
329.139
280.193
445.161
1225.578
2139.719
2419.199
2123.285
1723.923
1554.237
1620.767
1777.699
1651.354
1503.783
1663.168
2170.788
2695.525
2865.49
2422.163
1867.35
1502.059
1205.068
887.348
629.715
452.019
328.285
279.17
448.642
1232.076
2136.188
2410.494
2112.749
1722.478
1557.982
1618.845
1763.585
1644.319
1501.352
1661.771
2147.71
2658.647
2815.429
2375.83
1836.488
1484.162
1194.05
881.12
629.164
452.222
327.554
271.415
409.559
1080.465
1851.707
2087.853
1888.819
1610.056
1559.463
1648.484
1751.488
1622.773
1535.229
1851.058
2501.544
2940.332
2938.113
2385.084
1822.106
1491.025
1224.067
1073.373
873.855
611.476
442.032
313.551
275.313
368.437
609.798
948.412
1227.624
1655.621
1696.193
1594.738
1531.712
1726.81
1835.531
2001.689
2161.565
2225.793
2052.493
1672.391
1295.36
1102.372
1068.248
984.764
866.18
667.724
503.255
349.291
259.95
238.241
341.101
574.233
955.852
1168.727
1234.228
1052.013
1045.79
1262.075
1506.482
1674.755
1981.144
2181.091
2026.276
1784.095
1554.689
1250.359
959.275
675.846
504.614
360.392
288.852
247.1
430.343
1221.798
2140.888
2394.122
2068.859
1660.185
1497.701
1568.177
1730.646
1617.736
1471.8
1642.459
2156.05
2703.062
2882.262
2452.754
1902.133
1523.097
1216.096
893.663
634.648
453.639
329.073
281.466
448.916
1237.482
2165.602
2464.119
2140.511
1715.137
1539.401
1612.582
1773.666
1657.371
1513.309
1666.182
2164.365
2699.549
2869.82
2435.555
1894.24
1521.061
1215.212
892.856
633.983
456.772
329.139
280.193
445.161
1225.578
2139.719
2419.199
2123.285
1723.923
1554.237
1620.767
1777.699
1651.354
1503.783
1663.168
2170.788
2695.525
2865.49
2422.163
1867.35
1502.059
1205.068
887.348
629.715
452.019
328.285
279.17
448.642
1232.076
2136.188
2410.494
2112.749
1722.478
1557.982
1618.845
1763.585
1644.319
1501.352
1661.771
2147.71
2658.647
2815.429
2375.83
1836.488
1484.162
1194.05
881.12
629.164
452.222
327.554
271.415
409.559
1080.465
1851.707
2087.853
1888.819
1610.056
1559.463
1648.484
1751.488
1622.773
1535.229
1851.058
2501.544
2940.332
2938.113
2385.084
1822.106
1491.025
1224.067
1073.373
873.855
611.476
442.032
313.551
275.313
368.437
609.798
948.412
1227.624
1655.621
1696.193
1594.738
1531.712
1726.81
1835.531
2001.689
2161.565
2225.793
2052.493
1672.391
1295.36
1102.372
1068.248
984.764
866.18
667.724
503.255
349.291
259.95
238.241
341.101
574.233
955.852
1168.727
1234.228
1052.013
1045.79
1262.075
1506.482
1674.755
1981.144
2181.091
2026.276
1784.095
1554.689
1250.359
959.275
675.846
504.614
360.392
288.852
247.1
430.343
1221.798
2140.888
2394.122
2068.859
1660.185
1497.701
1568.177
1730.646
1617.736
1471.8
1642.459
2156.05
2703.062
2882.262
2452.754
1902.133
1523.097
1216.096
893.663
634.648
453.639
329.073
281.466
448.916
1237.482
2165.602
2464.119
2140.511
1715.137
1539.401
1612.582
1773.666
1657.371
1513.309
1666.182
2164.365
2699.549
2869.82
2435.555
1894.24
1521.061
1215.212
892.856
633.983
456.772
329.139
280.193
445.161
1225.578
2139.719
2419.199
2123.285
1723.923
1554.237
1620.767
1777.699
1651.354
1503.783
1663.168
2170.788
2695.525
2865.49
2422.163
1867.35
1502.059
1205.068
887.348
629.715
452.019
328.285
279.17
448.642
1232.076
2136.188
2410.494
2112.749
1722.478
1557.982
1618.845
1763.585
1644.319
1501.352
1661.771
2147.71
2658.647
2815.429
2375.83
1836.488
1484.162
1194.05
881.12
629.164
452.222
327.554
271.415
409.559
1080.465
1851.707
2087.853
1888.819
1610.056
1559.463
1648.484
1751.488
1622.773
1535.229
1851.058
2501.544
2940.332
2938.113
2385.084
1822.106
1491.025
1224.067
1073.373
873.855
611.476
442.032
313.551
275.313
368.437
609.798
948.412
1227.624
1655.621
1696.193
1594.738
1531.712
1726.81
1835.531
2001.689
2161.565
2225.793
2052.493
1672.391
1295.36
1102.372
1068.248
984.764
866.18
667.724
503.255
349.291
259.95
238.241
341.101
574.233
955.852
1168.727
1234.228
1052.013
1045.79
1262.075
1506.482
1674.755
1981.144
2181.091
2026.276
1784.095
1554.689
1250.359
959.275
675.846
504.614
360.392
288.852
247.1
430.343
1221.798
2140.888
2394.122
2068.859
1660.185
1497.701
1568.177
1730.646
1617.736
1471.8
1642.459
2156.05
2703.062
2882.262
2452.754
1902.133
1523.097
1216.096
893.663
634.648
453.639
329.073
281.466
448.916
1237.482
2165.602
2464.119
2140.511
1715.137
1539.401
1612.582
1773.666
1657.371
1513.309
1666.182
2164.365
2699.549
2869.82
2435.555
1894.24
1521.061
1215.212
892.856
633.983
456.772
329.139
280.193
445.161
1225.578
2139.719
2419.199
2123.285
1723.923
1554.237
1620.767
1777.699
1651.354
1503.783
1663.168
2170.788
2695.525
2865.49
2422.163
1867.35
1502.059
1205.068
887.348
629.715
452.019
328.285
279.17
448.642
1232.076
2136.188
2410.494
2112.749
1722.478
1557.982
1618.845
1763.585
1644.319
1501.352
1661.771
2147.71
2658.647
2815.429
2375.83
1836.488
1484.162
1194.05
881.12
629.164
452.222
327.554
271.415
409.559
1080.465
1851.707
2087.853
1888.819
1610.056
1559.463
1648.484
1751.488
1622.773
1535.229
1851.058
2501.544
2940.332
2938.113
2385.084
1822.106
1491.025
1224.067
1073.373
873.855
611.476
442.032
313.551
275.313
368.437
609.798
948.412
1227.624
1655.621
1696.193
1594.738
1531.712
1726.81
1835.531
2001.689
2161.565
2225.793
2052.493
1672.391
1295.36
1102.372
1068.248
984.764
866.18
667.724
503.255
349.291
259.95
238.241
341.101
574.233
955.852
1168.727
1234.228
1052.013
1045.79
1262.075
1506.482
1674.755
1981.144
2181.091
2026.276
1784.095
1554.689
1250.359
959.275
675.846
504.614
360.392
288.852
247.1
430.343
1221.798
2140.888
2394.122
2068.859
1660.185
1497.701
1568.177
1730.646
1617.736
1471.8
1642.459
2156.05
2703.062
2882.262
2452.754
1902.133
1523.097
1216.096
893.663
634.648
453.639
329.073
281.466
448.916
1237.482
2165.602
2464.119
2140.511
1715.137
1539.401
1612.582
1773.666
1657.371
1513.309
1666.182
2164.365
2699.549
2869.82
2435.555
1894.24
1521.061
1215.212
892.856
633.983
456.772
329.139
280.193
445.161
1225.578
2139.719
2419.199
2123.285
1723.923
1554.237
1620.767
1777.699
1651.354
1503.783
1663.168
2170.788
2695.525
2865.49
2422.163
1867.35
1502.059
1205.068
887.348
629.715
452.019
328.285
279.17
448.642
1232.076
2136.188
2410.494
2112.749
1722.478
1557.982
1618.845
1763.585
1644.319
1501.352
1661.771
2147.71
2658.647
2815.429
2375.83
1836.488
1484.162
1194.05
881.12
629.164
452.222
327.554
271.415
409.559
1080.465
1851.707
2087.853
1888.819
1610.056
1559.463
1648.484
1751.488
1622.773
1535.229
1851.058
2501.544
2940.332
2938.113
2385.084
1822.106
1491.025
1224.067
1073.373
873.855
611.476
442.032
313.551
275.313
368.437
609.798
948.412
1227.624
1655.621
1696.193
1594.738
1531.712
1726.81
1835.531
2001.689
2161.565
2225.793
2052.493
1672.391
1295.36
1102.372
1068.248
984.764
866.18
667.724
503.255
349.291
259.95
238.241
341.101
574.233
955.852
1168.727
1234.228
1052.013
1045.79
1262.075
1506.482
1674.755
1981.144
2181.091
2026.276
1784.095
1554.689
1250.359
959.275
675.846
504.614
360.392
288.852
247.1
430.343
1221.798
2140.888
2394.122
2068.859
1660.185
1497.701
1568.177
1730.646
1617.736
1471.8
1642.459
2156.05
2703.062
2882.262
2452.754
1902.133
1523.097
1216.096
893.663
634.648
453.639
329.073
281.466
448.916
1237.482
2165.602
2464.119
2140.511
1715.137
1539.401
1612.582
1773.666
1657.371
1513.309
1666.182
2164.365
2699.549
2869.82
2435.555
1894.24
1521.061
1215.212
892.856
633.983
456.772
329.139
280.193
445.161
1225.578
2139.719
2419.199
2123.285
1723.923
1554.237
1620.767
1777.699
1651.354
1503.783
1663.168
2170.788
2695.525
2865.49
2422.163
1867.35
1502.059
1205.068
887.348
629.715
452.019
328.285
279.17
448.642
1232.076
2136.188
2410.494
2112.749
1722.478
1557.982
1618.845
1763.585
1644.319
1501.352
1661.771
2147.71
2658.647
2815.429
2375.83
1836.488
1484.162
1194.05
881.12
629.164
452.222
327.554
271.415
409.559
1080.465
1851.707
2087.853
1888.819
1610.056
1559.463
1648.484
1751.488
1622.773
1535.229
1851.058
2501.544
2940.332
2938.113
2385.084
1822.106
1491.025
1224.067
1073.373
873.855
611.476
442.032
313.551
275.313
368.437
609.798
948.412
1227.624
1655.621
1696.193
1594.738
1531.712
1726.81
1835.531
2001.689
2161.565
2225.793
2052.493
1672.391
1295.36
1102.372
1068.248
984.764
866.18
667.724
503.255
349.291
259.95
238.241
341.101
574.233
955.852
1168.727
1234.228
1052.013
1045.79
1262.075
1506.482
1674.755
1981.144
2181.091
2026.276
1784.095
1554.689
1250.359
959.275
675.846
504.614
360.392
288.852
247.1
430.343
1221.798
2140.888
2394.122
2068.859
1660.185
1497.701
1568.177
1730.646
1617.736
1471.8
1642.459
2156.05
2703.062
2882.262
2452.754
1902.133
1523.097
1216.096
893.663
634.648
453.639
329.073
281.466
448.916
1237.482
2165.602
2464.119
2140.511
1715.137
1539.401
1612.582
1773.666
1657.371
1513.309
1666.182
2164.365
2699.549
2869.82
2435.555
1894.24
1521.061
1215.212
892.856
633.983
456.772
329.139
280.193
445.161
1225.578
2139.719
2419.199
2123.285
1723.923
1554.237
1620.767
1777.699
1651.354
1503.783
1663.168
2170.788
2695.525
2865.49
2422.163
1867.35
1502.059
1205.068
887.348
629.715
452.019
328.285
279.17
448.642
1232.076
2136.188
2410.494
2112.749
1722.478
1557.982
1618.845
1763.585
1644.319
1501.352
1661.771
2147.71
2658.647
2815.429
2375.83
1836.488
1484.162
1194.05
881.12
629.164
452.222
327.554
271.415
409.559
1080.465
1851.707
2087.853
1888.819
1610.056
1559.463
1648.484
1751.488
1622.773
1535.229
1851.058
2501.544
2940.332
2938.113
2385.084
1822.106
1491.025
1224.067
1073.373
873.855
611.476
442.032
313.551
275.313
368.437
609.798
948.412
1227.624
1655.621
1696.193
1594.738
1531.712
1726.81
1835.531
2001.689
2161.565
2225.793
2052.493
1672.391
1295.36
1102.372
1068.248
984.764
866.18
667.724
503.255
349.291
259.95
238.241
341.101
574.233
955.852
1168.727
1234.228
1052.013
1045.79
1262.075
1506.482
1674.755
1981.144
2181.091
2026.276
1784.095
1554.689
1250.359
959.275
675.846
504.614
360.392
288.852
247.1
430.343
1221.798
2140.888
2394.122
2068.859
1660.185
1497.701
1568.177
1730.646
1617.736
1471.8
1642.459
2156.05
2703.062
2882.262
2452.754
1902.133
1523.097
1216.096
893.663
634.648
453.639
329.073
281.466
448.916
1237.482
2165.602
2464.119
2140.511
1715.137
1539.401
1612.582
1773.666
1657.371
1513.309
1666.182
2164.365
2699.549
2869.82
2435.555
1894.24
1521.061
1215.212
892.856
633.983
456.772
329.139
280.193
445.161
1225.578
2139.719
2419.199
2123.285
1723.923
1554.237
1620.767
1777.699
1651.354
1503.783
1663.168
2170.788
2695.525
2865.49
2422.163
1867.35
1502.059
1205.068
887.348
629.715
452.019
328.285
279.17
448.642
1232.076
2136.188
2410.494
2112.749
1722.478
1557.982
1618.845
1763.585
1644.319
1501.352
1661.771
2147.71
2658.647
2815.429
2375.83
1836.488
1484.162
1194.05
881.12
629.164
452.222
327.554
271.415
409.559
1080.465
1851.707
2087.853
1888.819
1610.056
1559.463
1648.484
1751.488
1622.773
1535.229
1851.058
2501.544
2940.332
2938.113
2385.084
1822.106
1491.025
1224.067
1073.373
873.855
611.476
442.032
313.551
275.313
368.437
609.798
948.412
1227.624
1655.621
1696.193
1594.738
1531.712
1726.81
1835.531
2001.689
2161.565
2225.793
2052.493
1672.391
1295.36
1102.372
1068.248
984.764
866.18
667.724
503.255
349.291
259.95
238.241
341.101
574.233
955.852
1168.727
1234.228
1052.013
1045.79
1262.075
1506.482
1674.755
1981.144
2181.091
2026.276
1784.095
1554.689
1250.359
959.275
675.846
504.614
360.392
288.852
247.1
430.343
1221.798
2140.888
2394.122
2068.859
1660.185
1497.701
1568.177
1730.646
1617.736
1471.8
1642.459
2156.05
2703.062
2882.262
2452.754
1902.133
1523.097
1216.096
893.663
634.648
453.639
329.073
281.466
448.916
1237.482
2165.602
2464.119
2140.511
1715.137
1539.401
1612.582
1773.666
1657.371
1513.309
1666.182
2164.365
2699.549
2869.82
2435.555
1894.24
1521.061
1215.212
892.856
633.983
456.772
329.139
280.193
445.161
1225.578
2139.719
2419.199
2123.285
1723.923
1554.237
1620.767
1777.699
1651.354
1503.783
1663.168
2170.788
2695.525
2865.49
2422.163
1867.35
1502.059
1205.068
887.348
629.715
452.019
328.285
279.17
448.642
1232.076
2136.188
2410.494
2112.749
1722.478
1557.982
1618.845
1763.585
1644.319
1501.352
1661.771
2147.71
2658.647
2815.429
2375.83
1836.488
1484.162
1194.05
881.12
629.164
452.222
327.554
271.415
409.559
1080.465
1851.707
2087.853
1888.819
1610.056
1559.463
1648.484
1751.488
1622.773
1535.229
1851.058
2501.544
2940.332
2938.113
2385.084
1822.106
1491.025
1224.067
1073.373
873.855
611.476
442.032
313.551
275.313
368.437
609.798
948.412
1227.624
1655.621
1696.193
1594.738
1531.712
1726.81
1835.531
2001.689
2161.565
2225.793
2052.493
1672.391
1295.36
1102.372
1068.248
984.764
866.18
667.724
503.255
349.291
259.95
238.241
341.101
574.233
955.852
1168.727
1234.228
1052.013
1045.79
1262.075
1506.482
1674.755
1981.144
2181.091
2026.276
1784.095
1554.689
1250.359
959.275
675.846
504.614
360.392
288.852
247.1
430.343
1221.798
2140.888
2394.122
2068.859
1660.185
1497.701
1568.177
1730.646
1617.736
1471.8
1642.459
2156.05
2703.062
2882.262
2452.754
1902.133
1523.097
1216.096
893.663
634.648
453.639
329.073
281.466
448.916
1237.482
2165.602
2464.119
2140.511
1715.137
1539.401
1612.582
1773.666
1657.371
1513.309
1666.182
2164.365
2699.549
2869.82
2435.555
1894.24
1521.061
1215.212
892.856
633.983
456.772
329.139
280.193
445.161
1225.578
2139.719
2419.199
2123.285
1723.923
1554.237
1620.767
1777.699
1651.354
1503.783
1663.168
2170.788
2695.525
2865.49
2422.163
1867.35
1502.059
1205.068
887.348
629.715
452.019
328.285
279.17
448.642
1232.076
2136.188
2410.494
2112.749
1722.478
1557.982
1618.845
1763.585
1644.319
1501.352
1661.771
2147.71
2658.647
2815.429
2375.83
1836.488
1484.162
1194.05
881.12
629.164
452.222
327.554
271.415
409.559
1080.465
1851.707
2087.853
1888.819
1610.056
1559.463
1648.484
1751.488
1622.773
1535.229
1851.058
2501.544
2940.332
2938.113
2385.084
1822.106
1491.025
1224.067
1073.373
873.855
611.476
442.032
313.551
275.313
368.437
609.798
948.412
1227.624
1655.621
1696.193
1594.738
1531.712
1726.81
1835.531
2001.689
2161.565
2225.793
2052.493
1672.391
1295.36
1102.372
1068.248
984.764
866.18
667.724
503.255
349.291
259.95
238.241
341.101
574.233
955.852
1168.727
1234.228
1052.013
1045.79
1262.075
1506.482
1674.755
1981.144
2181.091
2026.276
1784.095
1554.689
1250.359
959.275
675.846
504.614
360.392
288.852
247.1
430.343
1221.798
2140.888
2394.122
2068.859
1660.185
1497.701
1568.177
1730.646
1617.736
1471.8
1642.459
2156.05
2703.062
2882.262
2452.754
1902.133
1523.097
1216.096
893.663
634.648
453.639
329.073
281.466
448.916
1237.482
2165.602
2464.119
2140.511
1715.137
1539.401
1612.582
1773.666
1657.371
1513.309
1666.182
2164.365
2699.549
2869.82
2435.555
1894.24
1521.061
1215.212
892.856
633.983
456.772
329.139
280.193
445.161
1225.578
2139.719
2419.199
2123.285
1723.923
1554.237
1620.767
1777.699
1651.354
1503.783
1663.168
2170.788
2695.525
2865.49
2422.163
1867.35
1502.059
1205.068
887.348
629.715
452.019
328.285
279.17
448.642
1232.076
2136.188
2410.494
2112.749
1722.478
1557.982
1618.845
1763.585
1644.319
1501.352
1661.771
2147.71
2658.647
2815.429
2375.83
1836.488
1484.162
1194.05
881.12
629.164
452.222
327.554
271.415
409.559
1080.465
1851.707
2087.853
1888.819
1610.056
1559.463
1648.484
1751.488
1622.773
1535.229
1851.058
2501.544
2940.332
2938.113
2385.084
1822.106
1491.025
1224.067
1073.373
873.855
611.476
442.032
313.551
275.313
368.437
609.798
948.412
1227.624
1655.621
1696.193
1594.738
1531.712
1726.81
1835.531
2001.689
2161.565
2225.793
2052.493
1672.391
1295.36
1102.372
1068.248
984.764
866.18
667.724
503.255
349.291
259.95
238.241
341.101
574.233
955.852
1168.727
1234.228
1052.013
1045.79
1262.075
1506.482
1674.755
1981.144
2181.091
2026.276
1784.095
1554.689
1250.359
959.275
675.758
504.68
360.48
287.997
244.833
420.874
1181.503
2051.272
2269.657
1933.511
1531.292
1374.212
1447.677
1599.17
1474.839
1337.371
1496.877
1980.676
2480.998
2636.831
2234.199
1715.047
1374.301
1093.266
797.349
564.672
404.103
292.906
251.653
419.621
1176.387
2054.808
2309.049
1988.56
1579.642
1420.392
1480.228
1625.666
1499.564
1362.826
1510.493
1978.002
2464.698
2621.773
2214.864
1711.151
1373.975
1097.749
803.565
568.382
406.599
294.092
252.196
420.379
1167.231
2018.697
2266.894
1972.046
1581.919
1421.331
1483.306
1612.107
1485.548
1355.714
1514.054
1977.806
2454.313
2600.978
2182.179
1681.891
1353.787
1085.425
794.004
563.901
405.228
293.493
252.36
419.117
1158.38
1997.619
2232.871
1941.61
1574.474
1426.844
1483.989
1606.907
1477.931
1356.656
1505.367
1945.296
2397.135
2542.841
2135.157
1647.992
1332.088
1070.548
786.824
556.622
400.833
290.175
243.004
377.358
1015.609
1726.949
1935.302
1736.473
1473.731
1431.963
1504.895
1585.994
1462.057
1382.802
1685.128
2298.761
2685.797
2675.233
2155.268
1647.589
1349.281
1103.462
974.427
788.779
551.044
397.132
283.157
247.276
340.461
568.703
868.977
1124.284
1522.125
1558.792
1452.584
1381.296
1554.77
1646.551
1806.233
1957.157
2013.588
1851.367
1496.908
1156.953
987.872
967.344
894.946
784.316
605.711
460.775
316.71
235.559
214.959
307.591
531.146
873.517
1060.442
1117.753
952.655
948.107
1129.523
1348.625
1513.861
1810.841
2024.814
1884.425
1661.137
1446.441
1158.851
885.173
625.299
468.26
332.408
264.972
227.814
410.01
1174.377
2045.959
2266.129
1931.257
1529.85
1373.295
1447.187
1598.946
1474.685
1337.301
1496.863
1980.676
2480.991
2636.831
2234.199
1715.047
1374.301
1093.266
797.349
564.672
404.103
292.906
251.653
419.621
1176.387
2054.808
2309.049
1988.56
1579.642
1420.392
1480.228
1625.666
1499.564
1362.826
1510.493
1978.002
2464.698
2621.773
2214.864
1711.151
1373.975
1097.749
803.565
568.382
406.599
294.092
252.196
420.379
1167.231
2018.697
2266.894
1972.046
1581.919
1421.331
1483.306
1612.107
1485.548
1355.714
1514.054
1977.806
2454.313
2600.978
2182.179
1681.891
1353.787
1085.425
794.004
563.901
405.228
293.493
252.36
419.117
1158.38
1997.619
2232.871
1941.61
1574.474
1426.844
1483.989
1606.907
1477.931
1356.656
1505.367
1945.296
2397.135
2542.841
2135.157
1647.992
1332.088
1070.548
786.824
556.622
400.833
290.175
243.004
377.358
1015.609
1726.949
1935.302
1736.473
1473.731
1431.963
1504.895
1585.994
1462.057
1382.802
1685.128
2298.761
2685.797
2675.233
2155.268
1647.589
1349.281
1103.462
974.427
788.779
551.044
397.132
283.157
247.276
340.461
568.703
868.977
1124.284
1522.125
1558.792
1452.584
1381.296
1554.77
1646.551
1806.233
1957.157
2013.588
1851.367
1496.908
1156.953
987.872
967.344
894.946
784.316
605.711
460.775
316.71
235.559
214.959
307.591
531.146
873.517
1060.442
1117.753
952.655
948.107
1129.523
1348.625
1513.861
1810.841
2024.814
1884.425
1661.137
1446.441
1158.851
885.173
625.299
468.26
332.408
264.972
227.814
410.01
1174.377
2045.959
2266.129
1931.257
1529.85
1373.295
1447.187
1598.946
1474.685
1337.301
1496.863
1980.676
2480.991
2636.831
2234.199
1715.047
1374.301
1093.266
797.349
564.672
404.103
292.906
251.653
419.621
1176.387
2054.808
2309.049
1988.56
1579.642
1420.392
1480.228
1625.666
1499.564
1362.826
1510.493
1978.002
2464.698
2621.773
2214.864
1711.151
1373.975
1097.749
803.565
568.382
406.599
294.092
252.196
420.379
1167.231
2018.697
2266.894
1972.046
1581.919
1421.331
1483.306
1612.107
1485.548
1355.714
1514.054
1977.806
2454.313
2600.978
2182.179
1681.891
1353.787
1085.425
794.004
563.901
405.228
293.493
252.36
419.117
1158.38
1997.619
2232.871
1941.61
1574.474
1426.844
1483.989
1606.907
1477.931
1356.656
1505.367
1945.296
2397.135
2542.841
2135.157
1647.992
1332.088
1070.548
786.824
556.622
400.833
290.175
243.004
377.358
1015.609
1726.949
1935.302
1736.473
1473.731
1431.963
1504.895
1585.994
1462.057
1382.802
1685.128
2298.761
2685.797
2675.233
2155.268
1647.589
1349.281
1103.462
974.427
788.779
551.044
397.132
283.157
247.276
340.461
568.703
868.977
1124.284
1522.125
1558.792
1452.584
1381.296
1554.77
1646.551
1806.233
1957.157
2013.588
1851.367
1496.908
1156.953
987.872
967.344
894.946
784.316
605.711
460.775
316.71
235.559
214.959
307.591
531.146
873.517
1060.442
1117.753
952.655
948.107
1129.523
1348.625
1513.861
1810.841
2024.814
1884.425
1661.137
1446.441
1158.851
885.173
625.299
468.26
332.408
264.972
227.814
410.01
1174.377
2045.959
2266.129
1931.257
1529.85
1373.295
1447.187
1598.946
1474.685
1337.301
1496.863
1980.676
2480.991
2636.831
2234.199
1715.047
1374.301
1093.266
797.349
564.672
404.103
292.906
251.653
419.621
1176.387
2054.808
2309.049
1988.56
1579.642
1420.392
1480.228
1625.666
1499.564
1362.826
1510.493
1978.002
2464.698
2621.773
2214.864
1711.151
1373.975
1097.749
803.565
568.382
406.599
294.092
252.196
420.379
1167.231
2018.697
2266.894
1972.046
1581.919
1421.331
1483.306
1612.107
1485.548
1355.714
1514.054
1977.806
2454.313
2600.978
2182.179
1681.891
1353.787
1085.425
794.004
563.901
405.228
293.493
252.36
419.117
1158.38
1997.619
2232.871
1941.61
1574.474
1426.844
1483.989
1606.907
1477.931
1356.656
1505.367
1945.296
2397.135
2542.841
2135.157
1647.992
1332.088
1070.548
786.824
556.622
400.833
290.175
243.004
377.358
1015.609
1726.949
1935.302
1736.473
1473.731
1431.963
1504.895
1585.994
1462.057
1382.802
1685.128
2298.761
2685.797
2675.233
2155.268
1647.589
1349.281
1103.462
974.427
788.779
551.044
397.132
283.157
247.276
340.461
568.703
868.977
1124.284
1522.125
1558.792
1452.584
1381.296
1554.77
1646.551
1806.233
1957.157
2013.588
1851.367
1496.908
1156.953
987.872
967.344
894.946
784.316
605.711
460.775
316.71
235.559
214.959
307.591
531.146
873.517
1060.442
1117.753
952.655
948.107
1129.523
1348.625
1513.861
1810.841
2024.814
1884.425
1661.137
1446.441
1158.851
885.173
625.299
468.26
332.408
264.972
227.814
410.01
1174.377
2045.959
2266.129
1931.257
1529.85
1373.295
1447.187
1598.946
1474.685
1337.301
1496.863
1980.676
2480.991
2636.831
2234.199
1715.047
1374.301
1093.266
797.349
564.672
404.103
292.906
251.653
419.621
1176.387
2054.808
2309.049
1988.56
1579.642
1420.392
1480.228
1625.666
1499.564
1362.826
1510.493
1978.002
2464.698
2621.773
2214.864
1711.151
1373.975
1097.749
803.565
568.382
406.599
294.092
252.196
420.379
1167.231
2018.697
2266.894
1972.046
1581.919
1421.331
1483.306
1612.107
1485.548
1355.714
1514.054
1977.806
2454.313
2600.978
2182.179
1681.891
1353.787
1085.425
794.004
563.901
405.228
293.493
252.36
419.117
1158.38
1997.619
2232.871
1941.61
1574.474
1426.844
1483.989
1606.907
1477.931
1356.656
1505.367
1945.296
2397.135
2542.841
2135.157
1647.992
1332.088
1070.548
786.824
556.622
400.833
290.175
243.004
377.358
1015.609
1726.949
1935.302
1736.473
1473.731
1431.963
1504.895
1585.994
1462.057
1382.802
1685.128
2298.761
2685.797
2675.233
2155.268
1647.589
1349.281
1103.462
974.427
788.779
551.044
397.132
283.157
247.276
340.461
568.703
868.977
1124.284
1522.125
1558.792
1452.584
1381.296
1554.77
1646.551
1806.233
1957.157
2013.588
1851.367
1496.908
1156.953
987.872
967.344
894.946
784.316
605.711
460.775
316.71
235.559
214.959
307.591
531.146
873.517
1060.442
1117.753
952.655
948.107
1129.523
1348.625
1513.861
1810.841
2024.814
1884.425
1661.137
1446.441
1158.851
885.173
625.299
468.26
332.408
264.972
227.814
410.01
1174.377
2045.959
2266.129
1931.257
1529.85
1373.295
1447.187
1598.946
1474.685
1337.301
1496.863
1980.676
2480.991
2636.831
2234.199
1715.047
1374.301
1093.266
797.349
564.672
404.103
292.906
251.653
419.621
1176.387
2054.808
2309.049
1988.56
1579.642
1420.392
1480.228
1625.666
1499.564
1362.826
1510.493
1978.002
2464.698
2621.773
2214.864
1711.151
1373.975
1097.749
803.565
568.382
406.599
294.092
252.196
420.379
1167.231
2018.697
2266.894
1972.046
1581.919
1421.331
1483.306
1612.107
1485.548
1355.714
1514.054
1977.806
2454.313
2600.978
2182.179
1681.891
1353.787
1085.425
794.004
563.901
405.228
293.493
252.36
419.117
1158.38
1997.619
2232.871
1941.61
1574.474
1426.844
1483.989
1606.907
1477.931
1356.656
1505.367
1945.296
2397.135
2542.841
2135.157
1647.992
1332.088
1070.548
786.824
556.622
400.833
290.175
243.004
377.358
1015.609
1726.949
1935.302
1736.473
1473.731
1431.963
1504.895
1585.994
1462.057
1382.802
1685.128
2298.761
2685.797
2675.233
2155.268
1647.589
1349.281
1103.462
974.427
788.779
551.044
397.132
283.157
247.276
340.461
568.703
868.977
1124.284
1522.125
1558.792
1452.584
1381.296
1554.77
1646.551
1806.233
1957.157
2013.588
1851.367
1496.908
1156.953
987.872
967.344
894.946
784.316
605.711
460.775
316.71
235.559
214.959
307.591
531.146
873.517
1060.442
1117.753
952.655
948.107
1129.523
1348.625
1513.861
1810.841
2024.814
1884.425
1661.137
1446.441
1158.851
885.173
625.299
468.26
332.408
264.972
227.814
410.01
1174.377
2045.959
2266.129
1931.257
1529.85
1373.295
1447.187
1598.946
1474.685
1337.301
1496.863
1980.676
2480.991
2636.831
2234.199
1715.047
1374.301
1093.266
797.349
564.672
404.103
292.906
251.653
419.621
1176.387
2054.808
2309.049
1988.56
1579.642
1420.392
1480.228
1625.666
1499.564
1362.826
1510.493
1978.002
2464.698
2621.773
2214.864
1711.151
1373.975
1097.749
803.565
568.382
406.599
294.092
252.196
420.379
1167.231
2018.697
2266.894
1972.046
1581.919
1421.331
1483.306
1612.107
1485.548
1355.714
1514.054
1977.806
2454.313
2600.978
2182.179
1681.891
1353.787
1085.425
794.004
563.901
405.228
293.493
252.36
419.117
1158.38
1997.619
2232.871
1941.61
1574.474
1426.844
1483.989
1606.907
1477.931
1356.656
1505.367
1945.296
2397.135
2542.841
2135.157
1647.992
1332.088
1070.548
786.824
556.622
400.833
290.175
243.004
377.358
1015.609
1726.949
1935.302
1736.473
1473.731
1431.963
1504.895
1585.994
1462.057
1382.802
1685.128
2298.761
2685.797
2675.233
2155.268
1647.589
1349.281
1103.462
974.427
788.779
551.044
397.132
283.157
247.276
340.461
568.703
868.977
1124.284
1522.125
1558.792
1452.584
1381.296
1554.77
1646.551
1806.233
1957.157
2013.588
1851.367
1496.908
1156.953
987.872
967.344
894.946
784.316
605.711
460.775
316.71
235.559
214.959
307.591
531.146
873.517
1060.442
1117.753
952.655
948.107
1129.523
1348.625
1513.861
1810.841
2024.814
1884.425
1661.137
1446.441
1158.851
885.173
625.299
468.26
332.408
264.972
227.814
410.01
1174.377
2045.959
2266.129
1931.257
1529.85
1373.295
1447.187
1598.946
1474.685
1337.301
1496.863
1980.676
2480.991
2636.831
2234.199
1715.047
1374.301
1093.266
797.349
564.672
404.103
292.906
251.653
419.621
1176.387
2054.808
2309.049
1988.56
1579.642
1420.392
1480.228
1625.666
1499.564
1362.826
1510.493
1978.002
2464.698
2621.773
2214.864
1711.151
1373.975
1097.749
803.565
568.382
406.599
294.092
252.196
420.379
1167.231
2018.697
2266.894
1972.046
1581.919
1421.331
1483.306
1612.107
1485.548
1355.714
1514.054
1977.806
2454.313
2600.978
2182.179
1681.891
1353.787
1085.425
794.004
563.901
405.228
293.493
252.36
419.117
1158.38
1997.619
2232.871
1941.61
1574.474
1426.844
1483.989
1606.907
1477.931
1356.656
1505.367
1945.296
2397.135
2542.841
2135.157
1647.992
1332.088
1070.548
786.824
556.622
400.833
290.175
243.004
377.358
1015.609
1726.949
1935.302
1736.473
1473.731
1431.963
1504.895
1585.994
1462.057
1382.802
1685.128
2298.761
2685.797
2675.233
2155.268
1647.589
1349.281
1103.462
974.427
788.779
551.044
397.132
283.157
247.276
340.461
568.703
868.977
1124.284
1522.125
1558.792
1452.584
1381.296
1554.77
1646.551
1806.233
1957.157
2013.588
1851.367
1496.908
1156.953
987.872
967.344
894.946
784.316
605.711
460.775
316.71
235.559
214.959
307.591
531.146
873.517
1060.442
1117.753
952.655
948.107
1129.523
1348.625
1513.861
1810.841
2024.814
1884.425
1661.137
1446.441
1158.851
885.173
625.299
468.26
332.408
264.972
227.814
410.01
1174.377
2045.959
2266.129
1931.257
1529.85
1373.295
1447.187
1598.946
1474.685
1337.301
1496.863
1980.676
2480.991
2636.831
2234.199
1715.047
1374.301
1093.266
797.349
564.672
404.103
292.906
251.653
419.621
1176.387
2054.808
2309.049
1988.56
1579.642
1420.392
1480.228
1625.666
1499.564
1362.826
1510.493
1978.002
2464.698
2621.773
2214.864
1711.151
1373.975
1097.749
803.565
568.382
406.599
294.092
252.196
420.379
1167.231
2018.697
2266.894
1972.046
1581.919
1421.331
1483.306
1612.107
1485.548
1355.714
1514.054
1977.806
2454.313
2600.978
2182.179
1681.891
1353.787
1085.425
794.004
563.901
405.228
293.493
252.36
419.117
1158.38
1997.619
2232.871
1941.61
1574.474
1426.844
1483.989
1606.907
1477.931
1356.656
1505.367
1945.296
2397.135
2542.841
2135.157
1647.992
1332.088
1070.548
786.824
556.622
400.833
290.175
243.004
377.358
1015.609
1726.949
1935.302
1736.473
1473.731
1431.963
1504.895
1585.994
1462.057
1382.802
1685.128
2298.761
2685.797
2675.233
2155.268
1647.589
1349.281
1103.462
974.427
788.779
551.044
397.132
283.157
247.276
340.461
568.703
868.977
1124.284
1522.125
1558.792
1452.584
1381.296
1554.77
1646.551
1806.233
1957.157
2013.588
1851.367
1496.908
1156.953
987.872
967.344
894.946
784.316
605.711
460.775
316.71
235.559
214.959
307.591
531.146
873.517
1060.442
1117.753
952.655
948.107
1129.523
1348.625
1513.861
1810.841
2024.814
1884.425
1661.137
1446.441
1158.851
885.173
625.299
468.26
332.408
264.972
227.814
410.01
1174.377
2045.959
2266.129
1931.257
1529.85
1373.295
1447.187
1598.946
1474.685
1337.301
1496.863
1980.676
2480.991
2636.831
2234.199
1715.047
1374.301
1093.266
797.349
564.672
404.103
292.906
251.653
419.621
1176.387
2054.808
2309.049
1988.56
1579.642
1420.392
1480.228
1625.666
1499.564
1362.826
1510.493
1978.002
2464.698
2621.773
2214.864
1711.151
1373.975
1097.749
803.565
568.382
406.599
294.092
252.196
420.379
1167.231
2018.697
2266.894
1972.046
1581.919
1421.331
1483.306
1612.107
1485.548
1355.714
1514.054
1977.806
2454.313
2600.978
2182.179
1681.891
1353.787
1085.425
794.004
563.901
405.228
293.493
252.36
419.117
1158.38
1997.619
2232.871
1941.61
1574.474
1426.844
1483.989
1606.907
1477.931
1356.656
1505.367
1945.296
2397.135
2542.841
2135.157
1647.992
1332.088
1070.548
786.824
556.622
400.833
290.175
243.004
377.358
1015.609
1726.949
1935.302
1736.473
1473.731
1431.963
1504.895
1585.994
1462.057
1382.802
1685.128
2298.761
2685.797
2675.233
2155.268
1647.589
1349.281
1103.462
974.427
788.779
551.044
397.132
283.157
247.276
340.461
568.703
868.977
1124.284
1522.125
1558.792
1452.584
1381.296
1554.77
1646.551
1806.233
1957.157
2013.588
1851.367
1496.908
1156.953
987.872
967.344
894.946
784.316
605.711
460.775
316.71
235.559
214.959
307.591
531.146
873.517
1060.442
1117.753
952.655
948.107
1129.523
1348.625
1513.861
1810.841
2024.814
1884.425
1661.137
1446.441
1158.851
885.173
625.299
468.26
332.408
264.972
227.814
410.01
1174.377
2045.959
2266.129
1931.257
1529.85
1373.295
1447.187
1598.946
1474.685
1337.301
1496.863
1980.676
2480.991
2636.831
2234.199
1715.047
1374.301
1093.266
797.349
564.672
404.103
292.906
251.653
419.621
1176.387
2054.808
2309.049
1988.56
1579.642
1420.392
1480.228
1625.666
1499.564
1362.826
1510.493
1978.002
2464.698
2621.773
2214.864
1711.151
1373.975
1097.749
803.565
568.382
406.599
294.092
252.196
420.379
1167.231
2018.697
2266.894
1972.046
1581.919
1421.331
1483.306
1612.107
1485.548
1355.714
1514.054
1977.806
2454.313
2600.978
2182.179
1681.891
1353.787
1085.425
794.004
563.901
405.228
293.493
252.36
419.117
1158.38
1997.619
2232.871
1941.61
1574.474
1426.844
1483.989
1606.907
1477.931
1356.656
1505.367
1945.296
2397.135
2542.841
2135.157
1647.992
1332.088
1070.548
786.824
556.622
400.833
290.175
243.004
377.358
1015.609
1726.949
1935.302
1736.473
1473.731
1431.963
1504.895
1585.994
1462.057
1382.802
1685.128
2298.761
2685.797
2675.233
2155.268
1647.589
1349.281
1103.462
974.427
788.779
551.044
397.132
283.157
247.276
340.461
568.703
868.977
1124.284
1522.125
1558.792
1452.584
1381.296
1554.77
1646.551
1806.233
1957.157
2013.588
1851.367
1496.908
1156.953
987.872
967.344
894.946
784.316
605.711
460.775
316.71
235.559
214.959
307.591
531.146
873.517
1060.442
1117.753
952.655
948.107
1129.523
1348.625
1513.861
1810.841
2024.814
1884.425
1661.137
1446.441
1158.851
885.173
625.299
468.26
332.408
264.972
227.814
410.01
1174.377
2045.959
2266.129
1931.257
1529.85
1373.295
1447.187
1598.946
1474.685
1337.301
1496.863
1980.676
2480.991
2636.831
2234.199
1715.047
1374.301
1093.266
797.349
564.672
404.103
292.906
251.653
419.621
1176.387
2054.808
2309.049
1988.56
1579.642
1420.392
1480.228
1625.666
1499.564
1362.826
1510.493
1978.002
2464.698
2621.773
2214.864
1711.151
1373.975
1097.749
803.565
568.382
406.599
294.092
252.196
420.379
1167.231
2018.697
2266.894
1972.046
1581.919
1421.331
1483.306
1612.107
1485.548
1355.714
1514.054
1977.806
2454.313
2600.978
2182.179
1681.891
1353.787
1085.425
794.004
563.901
405.228
293.493
252.36
419.117
1158.38
1997.619
2232.871
1941.61
1574.474
1426.844
1483.989
1606.907
1477.931
1356.656
1505.367
1945.296
2397.135
2542.841
2135.157
1647.992
1332.088
1070.548
786.824
556.622
400.833
290.175
243.004
377.358
1015.609
1726.949
1935.302
1736.473
1473.731
1431.963
1504.895
1585.994
1462.057
1382.802
1685.128
2298.761
2685.797
2675.233
2155.268
1647.589
1349.281
1103.462
974.427
788.779
551.044
397.132
283.157
247.276
340.461
568.703
868.977
1124.284
1522.125
1558.792
1452.584
1381.296
1554.77
1646.551
1806.233
1957.157
2013.588
1851.367
1496.908
1156.953
987.872
967.344
894.946
784.316
605.711
460.775
316.71
235.559
214.959
307.591
531.146
873.517
1060.442
1117.753
952.655
948.107
1129.523
1348.625
1513.861
1810.841
2024.814
1884.425
1661.137
1446.441
1158.851
885.173
625.299
468.26
332.408
264.972
227.814
410.01
1174.377
2045.959
2266.129
1931.257
1529.85
1373.295
1447.187
1598.946
1474.685
1337.301
1496.863
1980.676
2480.991
2636.831
2234.199
1715.047
1374.301
1093.266
797.349
564.672
404.103
292.906
251.653
419.621
1176.387
2054.808
2309.049
1988.56
1579.642
1420.392
1480.228
1625.666
1499.564
1362.826
1510.493
1978.002
2464.698
2621.773
2214.864
1711.151
1373.975
1097.749
803.565
568.382
406.599
294.092
252.196
420.379
1167.231
2018.697
2266.894
1972.046
1581.919
1421.331
1483.306
1612.107
1485.548
1355.714
1514.054
1977.806
2454.313
2600.978
2182.179
1681.891
1353.787
1085.425
794.004
563.901
405.228
293.493
252.36
419.117
1158.38
1997.619
2232.871
1941.61
1574.474
1426.844
1483.989
1606.907
1477.931
1356.656
1505.367
1945.296
2397.135
2542.841
2135.157
1647.992
1332.088
1070.548
786.824
556.622
400.833
290.175
243.004
377.358
1015.609
1726.949
1935.302
1736.473
1473.731
1431.963
1504.895
1585.994
1462.057
1382.802
1685.128
2298.761
2685.797
2675.233
2155.268
1647.589
1349.281
1103.462
974.427
788.779
551.044
397.132
283.157
247.276
340.461
568.703
868.977
1124.284
1522.125
1558.792
1452.584
1381.296
1554.77
1646.551
1806.233
1957.157
2013.588
1851.367
1496.908
1156.953
987.872
967.344
894.946
784.316
605.711
460.775
316.71
235.559
214.959
307.591
531.146
873.517
1060.442
1117.753
952.655
948.107
1129.523
1348.625
1513.861
1810.841
2024.814
1884.425
1661.137
1446.441
1158.851
885.173
625.299
468.26
332.408
264.972
227.814
410.01
1174.377
2045.959
2266.129
1931.257
1529.85
1373.295
1447.187
1598.946
1474.685
1337.301
1496.863
1980.676
2480.991
2636.831
2234.199
1715.047
1374.301
1093.266
797.349
564.672
404.103
292.906
251.653
419.621
1176.387
2054.808
2309.049
1988.56
1579.642
1420.392
1480.228
1625.666
1499.564
1362.826
1510.493
1978.002
2464.698
2621.773
2214.864
1711.151
1373.975
1097.749
803.565
568.382
406.599
294.092
252.196
420.379
1167.231
2018.697
2266.894
1972.046
1581.919
1421.331
1483.306
1612.107
1485.548
1355.714
1514.054
1977.806
2454.313
2600.978
2182.179
1681.891
1353.787
1085.425
794.004
563.901
405.228
293.493
252.36
419.117
1158.38
1997.619
2232.871
1941.61
1574.474
1426.844
1483.989
1606.907
1477.931
1356.656
1505.367
1945.296
2397.135
2542.841
2135.157
1647.992
1332.088
1070.548
786.824
556.622
400.833
290.175
243.004
377.358
1015.609
1726.949
1935.302
1736.473
1473.731
1431.963
1504.895
1585.994
1462.057
1382.802
1685.128
2298.761
2685.797
2675.233
2155.268
1647.589
1349.281
1103.462
974.427
788.779
551.044
397.132
283.157
247.276
340.461
568.703
868.977
1124.284
1522.125
1558.792
1452.584
1381.296
1554.77
1646.551
1806.233
1957.157
2013.588
1851.367
1496.908
1156.953
987.872
967.344
894.946
784.316
605.711
460.775
316.71
235.559
214.959
307.591
531.146
873.517
1060.442
1117.753
952.655
948.107
1129.523
1348.625
1513.861
1810.841
2024.814
1884.425
1661.137
1446.441
1158.851
885.173
625.299
468.26
332.408
264.972
227.814
410.01
1174.377
2045.959
2266.129
1931.257
1529.85
1373.295
1447.187
1598.946
1474.685
1337.301
1496.863
1980.676
2480.991
2636.831
2234.199
1715.047
1374.301
1093.266
797.349
564.672
404.103
292.906
251.653
419.621
1176.387
2054.808
2309.049
1988.56
1579.642
1420.392
1480.228
1625.666
1499.564
1362.826
1510.493
1978.002
2464.698
2621.773
2214.864
1711.151
1373.975
1097.749
803.565
568.382
406.599
294.092
252.196
420.379
1167.231
2018.697
2266.894
1972.046
1581.919
1421.331
1483.306
1612.107
1485.548
1355.714
1514.054
1977.806
2454.313
2600.978
2182.179
1681.891
1353.787
1085.425
794.004
563.901
405.228
293.493
252.36
419.117
1158.38
1997.619
2232.871
1941.61
1574.474
1426.844
1483.989
1606.907
1477.931
1356.656
1505.367
1945.296
2397.135
2542.841
2135.157
1647.992
1332.088
1070.548
786.824
556.622
400.833
290.175
243.004
377.358
1015.609
1726.949
1935.302
1736.473
1473.731
1431.963
1504.895
1585.994
1462.057
1382.802
1685.128
2298.761
2685.797
2675.233
2155.268
1647.589
1349.281
1103.462
974.427
788.779
551.044
397.132
283.157
247.276
340.461
568.703
868.977
1124.284
1522.125
1558.792
1452.584
1381.296
1554.77
1646.551
1806.233
1957.157
2013.588
1851.367
1496.908
1156.953
987.872
967.344
894.946
784.316
605.711
460.775
316.71
235.559
214.959
307.591
531.146
873.517
1060.442
1117.753
952.655
948.107
1129.523
1348.625
1513.861
1810.841
2024.814
1884.425
1661.137
1446.441
1158.851
885.173
625.299
468.26
332.408
264.972
227.814
410.01
1174.377
2045.959
2266.129
1931.257
1529.85
1373.295
1447.187
1598.946
1474.685
1337.301
1496.863
1980.676
2480.991
2636.831
2234.199
1715.047
1374.301
1093.266
797.349
564.672
404.103
292.906
251.653
419.621
1176.387
2054.808
2309.049
1988.56
1579.642
1420.392
1480.228
1625.666
1499.564
1362.826
1510.493
1978.002
2464.698
2621.773
2214.864
1711.151
1373.975
1097.749
803.565
568.382
406.599
294.092
252.196
420.379
1167.231
2018.697
2266.894
1972.046
1581.919
1421.331
1483.306
1612.107
1485.548
1355.714
1514.054
1977.806
2454.313
2600.978
2182.179
1681.891
1353.787
1085.425
794.004
563.901
405.228
293.493
252.36
419.117
1158.38
1997.619
2232.871
1941.61
1574.474
1426.844
1483.989
1606.907
1477.931
1356.656
1505.367
1945.296
2397.135
2542.841
2135.157
1647.992
1332.088
1070.548
786.824
556.622
400.833
290.175
243.004
377.358
1015.609
1726.949
1935.302
1736.473
1473.731
1431.963
1504.895
1585.994
1462.057
1382.802
1685.128
2298.761
2685.797
2675.233
2155.268
1647.589
1349.281
1103.462
974.427
788.779
551.044
397.132
283.157
247.276
340.461
568.703
868.977
1124.284
1522.125
1558.792
1452.584
1381.296
1554.77
1646.551
1806.233
1957.157
2013.588
1851.367
1496.908
1156.953
987.872
967.344
894.946
784.316
605.711
460.775
316.71
235.559
214.959
307.591
531.146
873.517
1060.442
1117.753
952.655
948.107
1129.523
1348.625
1513.861
1810.841
2024.814
1884.425
1661.137
1446.441
1158.851
885.173
625.299
468.26
332.408
264.972
227.814
410.01
1174.377
2045.959
2266.129
1931.257
1529.85
1373.295
1447.187
1598.946
1474.685
1337.301
1496.863
1980.676
2480.991
2636.831
2234.199
1715.047
1374.301
1093.266
797.349
564.672
404.103
292.906
251.653
419.621
1176.387
2054.808
2309.049
1988.56
1579.642
1420.392
1480.228
1625.666
1499.564
1362.826
1510.493
1978.002
2464.698
2621.773
2214.864
1711.151
1373.975
1097.749
803.565
568.382
406.599
294.092
252.196
420.379
1167.231
2018.697
2266.894
1972.046
1581.919
1421.331
1483.306
1612.107
1485.548
1355.714
1514.054
1977.806
2454.313
2600.978
2182.179
1681.891
1353.787
1085.425
794.004
563.901
405.228
293.493
252.36
419.117
1158.38
1997.619
2232.871
1941.61
1574.474
1426.844
1483.989
1606.907
1477.931
1356.656
1505.367
1945.296
2397.135
2542.841
2135.157
1647.992
1332.088
1070.548
786.824
556.622
400.833
290.175
243.004
377.358
1015.609
1726.949
1935.302
1736.473
1473.731
1431.963
1504.895
1585.994
1462.057
1382.802
1685.128
2298.761
2685.797
2675.233
2155.268
1647.589
1349.281
1103.462
974.427
788.779
551.044
397.132
283.157
247.276
340.461
568.703
868.977
1124.284
1522.125
1558.792
1452.584
1381.296
1554.77
1646.551
1806.233
1957.157
2013.588
1851.367
1496.908
1156.953
987.872
967.344
894.946
784.316
605.711
460.775
316.71
235.559
214.959
307.591
531.146
873.517
1060.442
1117.753
952.655
948.107
1129.523
1348.625
1513.861
1810.841
2024.814
1884.425
1661.137
1446.441
1158.851
885.173
625.299
468.26
332.408
264.972
227.814
410.01
1174.377
2045.959
2266.129
1931.257
1529.85
1373.295
1447.187
1598.946
1474.685
1337.301
1496.863
1980.676
2480.991
2636.831
2234.199
1715.047
1374.301
1093.266
797.349
564.672
404.103
292.906
251.653
419.621
1176.387
2054.808
2309.049
1988.56
1579.642
1420.392
1480.228
1625.666
1499.564
1362.826
1510.493
1978.002
2464.698
2621.773
2214.864
1711.151
1373.975
1097.749
803.565
568.382
406.599
294.092
252.196
420.379
1167.231
2018.697
2266.894
1972.046
1581.919
1421.331
1483.306
1612.107
1485.548
1355.714
1514.054
1977.806
2454.313
2600.978
2182.179
1681.891
1353.787
1085.425
794.004
563.901
405.228
293.493
252.36
419.117
1158.38
1997.619
2232.871
1941.61
1574.474
1426.844
1483.989
1606.907
1477.931
1356.656
1505.367
1945.296
2397.135
2542.841
2135.157
1647.992
1332.088
1070.548
786.824
556.622
400.833
290.175
243.004
377.358
1015.609
1726.949
1935.302
1736.473
1473.731
1431.963
1504.895
1585.994
1462.057
1382.802
1685.128
2298.761
2685.797
2675.233
2155.268
1647.589
1349.281
1103.462
974.427
788.779
551.044
397.132
283.157
247.276
340.461
568.703
868.977
1124.284
1522.125
1558.792
1452.584
1381.296
1554.77
1646.551
1806.233
1957.157
2013.588
1851.367
1496.908
1156.953
987.872
967.344
894.946
784.316
605.711
460.775
316.71
235.559
214.959
307.591
531.146
873.517
1060.442
1117.753
952.655
948.107
1129.523
1348.625
1513.861
1810.841
2024.814
1884.425
1661.137
1446.441
1158.851
885.173
625.299
468.26
332.408
264.972
227.814
410.01
1174.377
2045.959
2266.129
1931.257
1529.85
1373.295
1447.187
1598.946
1474.685
1337.301
1496.863
1980.676
2480.991
2636.831
2234.199
1715.047
1374.301
1093.266
797.349
564.672
404.103
292.906
251.653
419.621
1176.387
2054.808
2309.049
1988.56
1579.642
1420.392
1480.228
1625.666
1499.564
1362.826
1510.493
1978.002
2464.698
2621.773
2214.864
1711.151
1373.975
1097.749
803.565
568.382
406.599
294.092
252.196
420.379
1167.231
2018.697
2266.894
1972.046
1581.919
1421.331
1483.306
1612.107
1485.548
1355.714
1514.054
1977.806
2454.313
2600.978
2182.179
1681.891
1353.787
1085.425
794.004
563.901
405.228
293.493
252.36
419.117
1158.38
1997.619
2232.871
1941.61
1574.474
1426.844
1483.989
1606.907
1477.931
1356.656
1505.367
1945.296
2397.135
2542.841
2135.157
1647.992
1332.088
1070.548
786.824
556.622
400.833
290.175
243.004
377.358
1015.609
1726.949
1935.302
1736.473
1473.731
1431.963
1504.895
1585.994
1462.057
1382.802
1685.128
2298.761
2685.797
2675.233
2155.268
1647.589
1349.281
1103.462
974.427
788.779
551.044
397.132
283.157
247.276
340.461
568.703
868.977
1124.284
1522.125
1558.792
1452.584
1381.296
1554.77
1646.551
1806.233
1957.157
2013.588
1851.367
1496.908
1156.953
987.872
967.344
894.946
784.316
605.711
460.775
316.71
235.559
214.959
307.591
531.146
873.517
1060.442
1117.753
952.655
948.107
1129.523
1348.625
1513.861
1810.841
2024.814
1884.425
1661.137
1446.441
1158.851
885.173
625.299
468.26
332.408
264.972
227.814
410.01
1174.377
2045.959
2266.129
1931.257
1529.85
1373.295
1447.187
1598.946
1474.685
1337.301
1496.863
1980.676
2480.991
2636.831
2234.199
1715.047
1374.301
1093.266
797.349
564.672
404.103
292.906
251.653
419.621
1176.387
2054.808
2309.049
1988.56
1579.642
1420.392
1480.228
1625.666
1499.564
1362.826
1510.493
1978.002
2464.698
2621.773
2214.864
1711.151
1373.975
1097.749
803.565
568.382
406.599
294.092
252.196
420.379
1167.231
2018.697
2266.894
1972.046
1581.919
1421.331
1483.306
1612.107
1485.548
1355.714
1514.054
1977.806
2454.313
2600.978
2182.179
1681.891
1353.787
1085.425
794.004
563.901
405.228
293.493
252.36
419.117
1158.38
1997.619
2232.871
1941.61
1574.474
1426.844
1483.989
1606.907
1477.931
1356.656
1505.367
1945.296
2397.135
2542.841
2135.157
1647.992
1332.088
1070.548
786.824
556.622
400.833
290.175
243.004
377.358
1015.609
1726.949
1935.302
1736.473
1473.731
1431.963
1504.895
1585.994
1462.057
1382.802
1685.128
2298.761
2685.797
2675.233
2155.268
1647.589
1349.281
1103.462
974.427
788.779
551.044
397.132
283.157
247.276
340.461
568.703
868.977
1124.284
1522.125
1558.792
1452.584
1381.296
1554.77
1646.551
1806.233
1957.157
2013.588
1851.367
1496.908
1156.953
987.872
967.344
894.946
784.316
605.711
460.775
316.71
235.559
214.959
307.591
531.146
873.517
1060.442
1117.753
952.655
948.107
1129.523
1348.625
1513.861
1810.841
2024.814
1884.425
1661.137
1446.441
1158.851
885.173
625.299
468.26
332.408
264.972
227.814
410.01
1174.377
2045.959
2266.129
1931.257
1529.85
1373.295
1447.187
1598.946
1474.685
1337.301
1496.863
1980.676
2480.991
2636.831
2234.199
1715.047
1374.301
1093.266
797.349
564.672
404.103
292.906
251.653
419.621
1176.387
2054.808
2309.049
1988.56
1579.642
1420.392
1480.228
1625.666
1499.564
1362.826
1510.493
1978.002
2464.698
2621.773
2214.864
1711.151
1373.975
1097.749
803.565
568.382
406.599
294.092
252.196
420.379
1167.231
2018.697
2266.894
1972.046
1581.919
1421.331
1483.306
1612.107
1485.548
1355.714
1514.054
1977.806
2454.313
2600.978
2182.179
1681.891
1353.787
1085.425
794.004
563.901
405.228
293.493
252.36
419.117
1158.38
1997.619
2232.871
1941.61
1574.474
1426.844
1483.989
1606.907
1477.931
1356.656
1505.367
1945.296
2397.135
2542.841
2135.157
1647.992
1332.088
1070.548
786.824
556.622
400.833
290.175
243.004
377.358
1015.609
1726.949
1935.302
1736.473
1473.731
1431.963
1504.895
1585.994
1462.057
1382.802
1685.128
2298.761
2685.797
2675.233
2155.268
1647.589
1349.281
1103.462
974.427
788.779
551.044
397.132
283.157
247.276
340.461
568.703
868.977
1124.284
1522.125
1558.792
1452.584
1381.296
1554.77
1646.551
1806.233
1957.157
2013.588
1851.367
1496.908
1156.953
987.872
967.344
894.946
784.316
605.711
460.775
316.71
235.559
214.959
307.591
531.146
873.517
1060.442
1117.753
952.655
948.107
1129.523
1348.625
1513.861
1810.841
2024.814
1884.425
1661.137
1446.441
1158.851
885.173
625.299
468.26
332.408
264.972
227.814
410.01
1174.377
2045.959
2266.129
1931.257
1529.85
1373.295
1447.187
1598.946
1474.685
1337.301
1496.863
1980.676
2480.991
2636.831
2234.199
1715.047
1374.301
1093.266
797.349
564.672
404.103
292.906
251.653
419.621
1176.387
2054.808
2309.049
1988.56
1579.642
1420.392
1480.228
1625.666
1499.564
1362.826
1510.493
1978.002
2464.698
2621.773
2214.864
1711.151
1373.975
1097.749
803.565
568.382
406.599
294.092
252.196
420.379
1167.231
2018.697
2266.894
1972.046
1581.919
1421.331
1483.306
1612.107
1485.548
1355.714
1514.054
1977.806
2454.313
2600.978
2182.179
1681.891
1353.787
1085.425
794.004
563.901
405.228
293.493
252.36
419.117
1158.38
1997.619
2232.871
1941.61
1574.474
1426.844
1483.989
1606.907
1477.931
1356.656
1505.367
1945.296
2397.135
2542.841
2135.157
1647.992
1332.088
1070.548
786.824
556.622
400.833
290.175
243.004
377.358
1015.609
1726.949
1935.302
1736.473
1473.731
1431.963
1504.895
1585.994
1462.057
1382.802
1685.128
2298.761
2685.797
2675.233
2155.268
1647.589
1349.281
1103.462
974.427
788.779
551.044
397.132
283.157
247.276
340.461
568.703
868.977
1124.284
1522.125
1558.792
1452.584
1381.296
1554.77
1646.551
1806.233
1957.157
2013.588
1851.367
1496.908
1156.953
987.872
967.344
894.946
784.316
605.711
460.775
316.71
235.559
214.959
307.591
531.146
873.517
1060.442
1117.753
952.655
948.107
1129.523
1348.625
1513.861
1810.841
2024.814
1884.425
1661.137
1446.441
1158.851
885.173
625.299
468.26
332.408
264.972
227.814
410.01
1174.377
2045.959
2266.129
1931.257
1529.85
1373.295
1447.187
1598.946
1474.685
1337.301
1496.863
1980.676
2480.991
2636.831
2234.199
1715.047
1374.301
1093.266
797.349
564.672
404.103
292.906
251.653
419.621
1176.387
2054.808
2309.049
1988.56
1579.642
1420.392
1480.228
1625.666
1499.564
1362.826
1510.493
1978.002
2464.698
2621.773
2214.864
1711.151
1373.975
1097.749
803.565
568.382
406.599
294.092
252.196
420.379
1167.231
2018.697
2266.894
1972.046
1581.919
1421.331
1483.306
1612.107
1485.548
1355.714
1514.054
1977.806
2454.313
2600.978
2182.179
1681.891
1353.787
1085.425
794.004
563.901
405.228
293.493
252.36
419.117
1158.38
1997.619
2232.871
1941.61
1574.474
1426.844
1483.989
1606.907
1477.931
1356.656
1505.367
1945.296
2397.135
2542.841
2135.157
1647.992
1332.088
1070.548
786.824
556.622
400.833
290.175
243.004
377.358
1015.609
1726.949
1935.302
1736.473
1473.731
1431.963
1504.895
1585.994
1462.057
1382.802
1685.128
2298.761
2685.797
2675.233
2155.268
1647.589
1349.281
1103.462
974.427
788.779
551.044
397.132
283.157
247.276
340.461
568.703
868.977
1124.284
1522.125
1558.792
1452.584
1381.296
1554.77
1646.551
1806.233
1957.157
2013.588
1851.367
1496.908
1156.953
987.872
967.344
894.946
784.316
605.711
460.775
316.71
235.559
214.959
307.591
531.146
873.517
1060.442
1117.753
952.655
948.107
1129.523
1348.625
1513.861
1810.841
2024.814
1884.425
1661.137
1446.441
1158.851
885.173
625.299
468.26
332.408
264.972
227.814
410.01
1174.377
2045.959
2266.129
1931.257
1529.85
1373.295
1447.187
1598.946
1474.685
1337.301
1496.863
1980.676
2480.991
2636.831
2234.199
1715.047
1374.301
1093.266
797.349
564.672
404.103
292.906
251.653
419.621
1176.387
2054.808
2309.049
1988.56
1579.642
1420.392
1480.228
1625.666
1499.564
1362.826
1510.493
1978.002
2464.698
2621.773
2214.864
1711.151
1373.975
1097.749
803.565
568.382
406.599
294.092
252.196
420.379
1167.231
2018.697
2266.894
1972.046
1581.919
1421.331
1483.306
1612.107
1485.548
1355.714
1514.054
1977.806
2454.313
2600.978
2182.179
1681.891
1353.787
1085.425
794.004
563.901
405.228
293.493
252.36
419.117
1158.38
1997.619
2232.871
1941.61
1574.474
1426.844
1483.989
1606.907
1477.931
1356.656
1505.367
1945.296
2397.135
2542.841
2135.157
1647.992
1332.088
1070.548
786.824
556.622
400.833
290.175
243.004
377.358
1015.609
1726.949
1935.302
1736.473
1473.731
1431.963
1504.895
1585.994
1462.057
1382.802
1685.128
2298.761
2685.797
2675.233
2155.268
1647.589
1349.281
1103.462
974.427
788.779
551.044
397.132
283.157
247.276
340.461
568.703
868.977
1124.284
1522.125
1558.792
1452.584
1381.296
1554.77
1646.551
1806.233
1957.157
2013.588
1851.367
1496.908
1156.953
987.872
967.344
894.946
784.316
605.711
460.775
316.71
235.559
214.959
307.591
531.146
873.517
1060.442
1117.753
952.655
948.107
1129.523
1348.625
1513.861
1810.841
2024.814
1884.425
1661.137
1446.441
1158.851
885.173
625.299
468.26
332.408
264.972
227.814
410.01
1174.377
2045.959
2266.129
1931.257
1529.85
1373.295
1447.187
1598.946
1474.685
1337.301
1496.863
1980.676
2480.991
2636.831
2234.199
1715.047
1374.301
1093.266
797.349
564.672
404.103
292.906
251.653
419.621
1176.387
2054.808
2309.049
1988.56
1579.642
1420.392
1480.228
1625.666
1499.564
1362.826
1510.493
1978.002
2464.698
2621.773
2214.864
1711.151
1373.975
1097.749
803.565
568.382
406.599
294.092
252.196
420.379
1167.231
2018.697
2266.894
1972.046
1581.919
1421.331
1483.306
1612.107
1485.548
1355.714
1514.054
1977.806
2454.313
2600.978
2182.179
1681.891
1353.787
1085.425
794.004
563.901
405.228
293.493
252.36
419.117
1158.38
1997.619
2232.871
1941.61
1574.474
1426.844
1483.989
1606.907
1477.931
1356.656
1505.367
1945.296
2397.135
2542.841
2135.157
1647.992
1332.088
1070.548
786.824
556.622
400.833
290.175
243.004
377.358
1015.609
1726.949
1935.302
1736.473
1473.731
1431.963
1504.895
1585.994
1462.057
1382.802
1685.128
2298.761
2685.797
2675.233
2155.268
1647.589
1349.281
1103.462
974.427
788.779
551.044
397.132
283.157
247.276
340.461
568.703
868.977
1124.284
1522.125
1558.792
1452.584
1381.296
1554.77
1646.551
1806.233
1957.157
2013.588
1851.367
1496.908
1156.953
987.872
967.344
894.946
784.316
605.711
460.775
316.71
235.559
214.959
307.591
531.146
873.517
1060.442
1117.753
952.655
948.107
1129.523
1348.625
1513.861
1810.841
2024.814
1884.425
1661.137
1446.441
1158.851
885.173
625.299
468.26
332.408
264.972
227.814
410.01
1174.377
2045.959
2266.129
1931.257
1529.85
1373.295
1447.187
1598.946
1474.685
1337.301
1496.863
1980.676
2480.991
2636.831
2234.199
1715.047
1374.301
1093.266
797.349
564.672
404.103
292.906
251.653
419.621
1176.387
2054.808
2309.049
1988.56
1579.642
1420.392
1480.228
1625.666
1499.564
1362.826
1510.493
1978.002
2464.698
2621.773
2214.864
1711.151
1373.975
1097.749
803.565
568.382
406.599
294.092
252.196
420.379
1167.231
2018.697
2266.894
1972.046
1581.919
1421.331
1483.306
1612.107
1485.548
1355.714
1514.054
1977.806
2454.313
2600.978
2182.179
1681.891
1353.787
1085.425
794.004
563.901
405.228
293.493
252.36
419.117
1158.38
1997.619
2232.871
1941.61
1574.474
1426.844
1483.989
1606.907
1477.931
1356.656
1505.367
1945.296
2397.135
2542.841
2135.157
1647.992
1332.088
1070.548
786.824
556.622
400.833
290.175
243.004
377.358
1015.609
1726.949
1935.302
1736.473
1473.731
1431.963
1504.895
1585.994
1462.057
1382.802
1685.128
2298.761
2685.797
2675.233
2155.268
1647.589
1349.281
1103.462
974.427
788.779
551.044
397.132
283.157
247.276
340.461
568.703
868.977
1124.284
1522.125
1558.792
1452.584
1381.296
1554.77
1646.551
1806.233
1957.157
2013.588
1851.367
1496.908
1156.953
987.872
967.344
894.946
784.316
605.711
460.775
316.71
235.559
214.959
307.591
531.146
873.517
1060.442
1117.753
952.655
948.107
1129.523
1348.625
1513.861
1810.841
2024.814
1884.425
1661.137
1446.441
1158.851
885.173
625.299
468.26
332.408
264.972
227.814
410.01
1174.377
2045.959
2266.129
1931.257
1529.85
1373.295
1447.187
1598.946
1474.685
1337.301
1496.863
1980.676
2480.991
2636.831
2234.199
1715.047
1374.301
1093.266
797.349
564.672
404.103
292.906
251.653
419.621
1176.387
2054.808
2309.049
1988.56
1579.642
1420.392
1480.228
1625.666
1499.564
1362.826
1510.493
1978.002
2464.698
2621.773
2214.864
1711.151
1373.975
1097.749
803.565
568.382
406.599
294.092
252.196
420.379
1167.231
2018.697
2266.894
1972.046
1581.919
1421.331
1483.306
1612.107
1485.548
1355.714
1514.054
1977.806
2454.313
2600.978
2182.179
1681.891
1353.787
1085.425
794.004
563.901
405.228
293.493
252.36
419.117
1158.38
1997.619
2232.871
1941.61
1574.474
1426.844
1483.989
1606.907
1477.931
1356.656
1505.367
1945.296
2397.135
2542.841
2135.157
1647.992
1332.088
1070.548
786.824
556.622
400.833
290.175
243.004
377.358
1015.609
1726.949
1935.302
1736.473
1473.731
1431.963
1504.895
1585.994
1462.057
1382.802
1685.128
2298.761
2685.797
2675.233
2155.268
1647.589
1349.281
1103.462
974.427
788.779
551.044
397.132
283.157
247.276
340.461
568.703
868.977
1124.284
1522.125
1558.792
1452.584
1381.296
1554.77
1646.551
1806.233
1957.157
2013.588
1851.367
1496.908
1156.953
987.872
967.344
894.946
784.316
605.711
460.775
316.71
235.559
214.959
307.591
531.146
873.517
1060.442
1117.753
952.655
948.107
1129.523
1348.625
1513.861
1810.841
2024.814
1884.425
1661.137
1446.441
1158.851
885.173
625.299
468.26
332.408
264.972
227.814
410.01
1174.377
2045.959
2266.129
1931.257
1529.85
1373.295
1447.187
1598.946
1474.685
1337.301
1496.863
1980.676
2480.991
2636.831
2234.199
1715.047
1374.301
1093.266
797.349
564.672
404.103
292.906
251.653
419.621
1176.387
2054.808
2309.049
1988.56
1579.642
1420.392
1480.228
1625.666
1499.564
1362.826
1510.493
1978.002
2464.698
2621.773
2214.864
1711.151
1373.975
1097.749
803.565
568.382
406.599
294.092
252.196
420.379
1167.231
2018.697
2266.894
1972.046
1581.919
1421.331
1483.306
1612.107
1485.548
1355.714
1514.054
1977.806
2454.313
2600.978
2182.179
1681.891
1353.787
1085.425
794.004
563.901
405.228
293.493
252.36
419.117
1158.38
1997.619
2232.871
1941.61
1574.474
1426.844
1483.989
1606.907
1477.931
1356.656
1505.367
1945.296
2397.135
2542.841
2135.157
1647.992
1332.088
1070.548
786.824
556.622
400.833
290.175
243.004
377.358
1015.609
1726.949
1935.302
1736.473
1473.731
1431.963
1504.895
1585.994
1462.057
1382.802
1685.128
2298.761
2685.797
2675.233
2155.268
1647.589
1349.281
1103.462
974.427
788.779
551.044
397.132
283.157
247.276
340.461
568.703
868.977
1124.284
1522.125
1558.792
1452.584
1381.296
1554.77
1646.551
1806.233
1957.157
2013.588
1851.367
1496.908
1156.953
987.872
967.344
894.946
784.316
605.711
460.775
316.71
235.559
214.959
307.591
531.146
873.517
1060.442
1117.753
952.655
948.107
1129.523
1348.625
1513.861
1810.841
2024.814
1884.425
1661.137
1446.441
1158.851
885.173
625.299
468.26
332.408
264.972
227.814
410.01
1174.377
2045.959
2266.129
1931.257
1529.85
1373.295
1447.187
1598.946
1474.685
1337.301
1496.863
1980.676
2480.991
2636.831
2234.199
1715.047
1374.301
1093.266
797.349
564.672
404.103
292.906
251.653
419.621
1176.387
2054.808
2309.049
1988.56
1579.642
1420.392
1480.228
1625.666
1499.564
1362.826
1510.493
1978.002
2464.698
2621.773
2214.864
1711.151
1373.975
1097.749
803.565
568.382
406.599
294.092
252.196
420.379
1167.231
2018.697
2266.894
1972.046
1581.919
1421.331
1483.306
1612.107
1485.548
1355.714
1514.054
1977.806
2454.313
2600.978
2182.179
1681.891
1353.787
1085.425
794.004
563.901
405.228
293.493
252.36
419.117
1158.38
1997.619
2232.871
1941.61
1574.474
1426.844
1483.989
1606.907
1477.931
1356.656
1505.367
1945.296
2397.135
2542.841
2135.157
1647.992
1332.088
1070.548
786.824
556.622
400.833
290.175
243.004
377.358
1015.609
1726.949
1935.302
1736.473
1473.731
1431.963
1504.895
1585.994
1462.057
1382.802
1685.128
2298.761
2685.797
2675.233
2155.268
1647.589
1349.281
1103.462
974.427
788.779
551.044
397.132
283.157
247.276
340.461
568.703
868.977
1124.284
1522.125
1558.792
1452.584
1381.296
1554.77
1646.551
1806.233
1957.157
2013.588
1851.367
1496.908
1156.953
987.872
967.344
894.946
784.316
605.711
460.775
316.71
235.559
214.959
307.591
531.146
873.517
1060.442
1117.753
952.655
948.107
1129.523
1348.625
1513.861
1810.841
2024.814
1884.425
1661.137
1446.441
1158.851
885.173
625.299
468.26
332.408
264.972
227.814
410.01
1174.377
2045.959
2266.129
1931.257
1529.85
1373.295
1447.187
1598.946
1474.685
1337.301
1496.863
1980.676
2480.991
2636.831
2234.199
1715.047
1374.301
1093.266
797.349
564.672
404.103
292.906
251.653
419.621
1176.387
2054.808
2309.049
1988.56
1579.642
1420.392
1480.228
1625.666
1499.564
1362.826
1510.493
1978.002
2464.698
2621.773
2214.864
1711.151
1373.975
1097.749
803.565
568.382
406.599
294.092
252.196
420.379
1167.231
2018.697
2266.894
1972.046
1581.919
1421.331
1483.306
1612.107
1485.548
1355.714
1514.054
1977.806
2454.313
2600.978
2182.179
1681.891
1353.787
1085.425
794.004
563.901
405.228
293.493
252.36
419.117
1158.38
1997.619
2232.871
1941.61
1574.474
1426.844
1483.989
1606.907
1477.931
1356.656
1505.367
1945.296
2397.135
2542.841
2135.157
1647.992
1332.088
1070.548
786.824
556.622
400.833
290.175
243.004
377.358
1015.609
1726.949
1935.302
1736.473
1473.731
1431.963
1504.895
1585.994
1462.057
1382.802
1685.128
2298.761
2685.797
2675.233
2155.268
1647.589
1349.281
1103.462
974.427
788.779
551.044
397.132
283.157
247.276
340.461
568.703
868.977
1124.284
1522.125
1558.792
1452.584
1381.296
1554.77
1646.551
1806.233
1957.157
2013.588
1851.367
1496.908
1156.953
987.872
967.344
894.946
784.316
605.711
460.775
316.71
235.559
214.959
307.591
531.146
873.517
1060.442
1117.753
952.655
948.107
1129.523
1348.625
1513.861
1810.841
2024.814
1884.425
1661.137
1446.441
1158.851
885.173
625.387
468.194
332.32
265.827
230.081
419.479
1214.672
2135.575
2390.594
2066.605
1658.743
1496.784
1567.687
1730.422
1617.582
1471.73
1642.445
2156.05
2703.055
2882.262
2452.754
1902.133
1523.097
1216.096
893.663
634.648
453.639
329.073
281.466
448.916
1237.482
2165.602
2464.119
2140.511
1715.137
1539.401
1612.582
1773.666
1657.371
1513.309
1666.182
2164.365
2699.549
2869.82
2435.555
1894.24
1521.061
1215.212
892.856
633.983
456.772
329.139
280.193
445.161
1225.578
2139.719
2419.199
2123.285
1723.923
1554.237
1620.767
1777.699
1651.354
1503.783
1663.168
2170.788
2695.525
2865.49
2422.163
1867.35
1502.059
1205.068
887.348
629.715
452.019
328.285
279.17
448.642
1232.076
2136.188
2410.494
2112.749
1722.478
1557.982
1618.845
1763.585
1644.319
1501.352
1661.771
2147.71
2658.647
2815.429
2375.83
1836.488
1484.162
1194.05
881.12
629.164
452.222
327.554
271.415
409.559
1080.465
1851.707
2087.853
1888.819
1610.056
1559.463
1648.484
1751.488
1622.773
1535.229
1851.058
2501.544
2940.332
2938.113
2385.084
1822.106
1491.025
1224.067
1073.373
873.855
611.476
442.032
313.551
275.313
368.437
609.798
948.412
1227.624
1655.621
1696.193
1594.738
1531.712
1726.81
1835.531
2001.689
2161.565
2225.793
2052.493
1672.391
1295.36
1102.372
1068.248
984.764
866.18
667.724
503.255
349.291
259.95
238.241
341.101
574.233
955.852
1168.727
1234.228
1052.013
1045.79
1262.075
1506.482
1674.755
1981.144
2181.091
2026.276
1784.095
1554.689
1250.359
959.275
675.846
504.614
360.392
288.852
247.1
430.343
1221.798
2140.888
2394.122
2068.859
1660.185
1497.701
1568.177
1730.646
1617.736
1471.8
1642.459
2156.05
2703.062
2882.262
2452.754
1902.133
1523.097
1216.096
893.663
634.648
453.639
329.073
281.466
448.916
1237.482
2165.602
2464.119
2140.511
1715.137
1539.401
1612.582
1773.666
1657.371
1513.309
1666.182
2164.365
2699.549
2869.82
2435.555
1894.24
1521.061
1215.212
892.856
633.983
456.772
329.139
280.193
445.161
1225.578
2139.719
2419.199
2123.285
1723.923
1554.237
1620.767
1777.699
1651.354
1503.783
1663.168
2170.788
2695.525
2865.49
2422.163
1867.35
1502.059
1205.068
887.348
629.715
452.019
328.285
279.17
448.642
1232.076
2136.188
2410.494
2112.749
1722.478
1557.982
1618.845
1763.585
1644.319
1501.352
1661.771
2147.71
2658.647
2815.429
2375.83
1836.488
1484.162
1194.05
881.12
629.164
452.222
327.554
271.415
409.559
1080.465
1851.707
2087.853
1888.819
1610.056
1559.463
1648.484
1751.488
1622.773
1535.229
1851.058
2501.544
2940.332
2938.113
2385.084
1822.106
1491.025
1224.067
1073.373
873.855
611.476
442.032
313.551
275.313
368.437
609.798
948.412
1227.624
1655.621
1696.193
1594.738
1531.712
1726.81
1835.531
2001.689
2161.565
2225.793
2052.493
1672.391
1295.36
1102.372
1068.248
984.764
866.18
667.724
503.255
349.291
259.95
238.241
341.101
574.233
955.852
1168.727
1234.228
1052.013
1045.79
1262.075
1506.482
1674.755
1981.144
2181.091
2026.276
1784.095
1554.689
1250.359
959.275
675.846
504.614
360.392
288.852
247.1
430.343
1221.798
2140.888
2394.122
2068.859
1660.185
1497.701
1568.177
1730.646
1617.736
1471.8
1642.459
2156.05
2703.062
2882.262
2452.754
1902.133
1523.097
1216.096
893.663
634.648
453.639
329.073
281.466
448.916
1237.482
2165.602
2464.119
2140.511
1715.137
1539.401
1612.582
1773.666
1657.371
1513.309
1666.182
2164.365
2699.549
2869.82
2435.555
1894.24
1521.061
1215.212
892.856
633.983
456.772
329.139
280.193
445.161
1225.578
2139.719
2419.199
2123.285
1723.923
1554.237
1620.767
1777.699
1651.354
1503.783
1663.168
2170.788
2695.525
2865.49
2422.163
1867.35
1502.059
1205.068
887.348
629.715
452.019
328.285
279.17
448.642
1232.076
2136.188
2410.494
2112.749
1722.478
1557.982
1618.845
1763.585
1644.319
1501.352
1661.771
2147.71
2658.647
2815.429
2375.83
1836.488
1484.162
1194.05
881.12
629.164
452.222
327.554
271.415
409.559
1080.465
1851.707
2087.853
1888.819
1610.056
1559.463
1648.484
1751.488
1622.773
1535.229
1851.058
2501.544
2940.332
2938.113
2385.084
1822.106
1491.025
1224.067
1073.373
873.855
611.476
442.032
313.551
275.313
368.437
609.798
948.412
1227.624
1655.621
1696.193
1594.738
1531.712
1726.81
1835.531
2001.689
2161.565
2225.793
2052.493
1672.391
1295.36
1102.372
1068.248
984.764
866.18
667.724
503.255
349.291
259.95
238.241
341.101
574.233
955.852
1168.727
1234.228
1052.013
1045.79
1262.075
1506.482
1674.755
1981.144
2181.091
2026.276
1784.095
1554.689
1250.359
959.275
675.846
504.614
360.392
288.852
247.1
430.343
1221.798
2140.888
2394.122
2068.859
1660.185
1497.701
1568.177
1730.646
1617.736
1471.8
1642.459
2156.05
2703.062
2882.262
2452.754
1902.133
1523.097
1216.096
893.663
634.648
453.639
329.073
281.466
448.916
1237.482
2165.602
2464.119
2140.511
1715.137
1539.401
1612.582
1773.666
1657.371
1513.309
1666.182
2164.365
2699.549
2869.82
2435.555
1894.24
1521.061
1215.212
892.856
633.983
456.772
329.139
280.193
445.161
1225.578
2139.719
2419.199
2123.285
1723.923
1554.237
1620.767
1777.699
1651.354
1503.783
1663.168
2170.788
2695.525
2865.49
2422.163
1867.35
1502.059
1205.068
887.348
629.715
452.019
328.285
279.17
448.642
1232.076
2136.188
2410.494
2112.749
1722.478
1557.982
1618.845
1763.585
1644.319
1501.352
1661.771
2147.71
2658.647
2815.429
2375.83
1836.488
1484.162
1194.05
881.12
629.164
452.222
327.554
271.415
409.559
1080.465
1851.707
2087.853
1888.819
1610.056
1559.463
1648.484
1751.488
1622.773
1535.229
1851.058
2501.544
2940.332
2938.113
2385.084
1822.106
1491.025
1224.067
1073.373
873.855
611.476
442.032
313.551
275.313
368.437
609.798
948.412
1227.624
1655.621
1696.193
1594.738
1531.712
1726.81
1835.531
2001.689
2161.565
2225.793
2052.493
1672.391
1295.36
1102.372
1068.248
984.764
866.18
667.724
503.255
349.291
259.95
238.241
341.101
574.233
955.852
1168.727
1234.228
1052.013
1045.79
1262.075
1506.482
1674.755
1981.144
2181.091
2026.276
1784.095
1554.689
1250.359
959.275
675.846
504.614
360.392
288.852
247.1
430.343
1221.798
2140.888
2394.122
2068.859
1660.185
1497.701
1568.177
1730.646
1617.736
1471.8
1642.459
2156.05
2703.062
2882.262
2452.754
1902.133
1523.097
1216.096
893.663
634.648
453.639
329.073
281.466
448.916
1237.482
2165.602
2464.119
2140.511
1715.137
1539.401
1612.582
1773.666
1657.371
1513.309
1666.182
2164.365
2699.549
2869.82
2435.555
1894.24
1521.061
1215.212
892.856
633.983
456.772
329.139
280.193
445.161
1225.578
2139.719
2419.199
2123.285
1723.923
1554.237
1620.767
1777.699
1651.354
1503.783
1663.168
2170.788
2695.525
2865.49
2422.163
1867.35
1502.059
1205.068
887.348
629.715
452.019
328.285
279.17
448.642
1232.076
2136.188
2410.494
2112.749
1722.478
1557.982
1618.845
1763.585
1644.319
1501.352
1661.771
2147.71
2658.647
2815.429
2375.83
1836.488
1484.162
1194.05
881.12
629.164
452.222
327.554
271.415
409.559
1080.465
1851.707
2087.853
1888.819
1610.056
1559.463
1648.484
1751.488
1622.773
1535.229
1851.058
2501.544
2940.332
2938.113
2385.084
1822.106
1491.025
1224.067
1073.373
873.855
611.476
442.032
313.551
275.313
368.437
609.798
948.412
1227.624
1655.621
1696.193
1594.738
1531.712
1726.81
1835.531
2001.689
2161.565
2225.793
2052.493
1672.391
1295.36
1102.372
1068.248
984.764
866.18
667.724
503.255
349.291
259.95
238.241
341.101
574.233
955.852
1168.727
1234.228
1052.013
1045.79
1262.075
1506.482
1674.755
1981.144
2181.091
2026.276
1784.095
1554.689
1250.359
959.275
675.802
504.757
360.348
288.257
246.443
432.68
1225.281
2157.909
2429.113
2104.183
1683.057
1515.954
1598.562
1768.722
1655.624
1508.025
1673.594
2199.634
2759.683
2949.874
2505.807
1936.402
1554.091
1239.618
912.143
649.262
467.733
339.797
287.002
457.138
1250.527
2191.367
2497.57
2176.06
1745.234
1563.281
1641.049
1809.32
1694.761
1548.447
1707.505
2209.925
2745.926
2938.818
2496.671
1936.559
1557.401
1241.492
916.26
652.557
468.895
338.011
284.957
453.885
1241.77
2165.096
2447.706
2150.255
1740.361
1571.228
1654.458
1818.614
1692.151
1539.785
1712.912
2222.514
2760.57
2929.968
2473.07
1911.925
1530.96
1225.917
903.202
643.133
462.459
336.172
285.155
456.237
1245.582
2161.435
2446.766
2152.181
1749.608
1583.429
1649.156
1813.813
1690.518
1541.034
1698.067
2191.504
2711.017
2871.413
2426.586
1875.685
1516.124
1215.913
897.844
642.118
463.119
336.168
279.722
417.218
1098.643
1882.052
2125.313
1920.795
1634.982
1597.185
1688.274
1792.265
1666.844
1576.073
1882.387
2549.171
2993.192
2995.631
2436.097
1863.609
1522.45
1246.77
1094.018
891.12
622.57
450.008
321.6
281.079
376.672
617.9
959.985
1252.83
1678.617
1723.32
1637.244
1575.907
1768.793
1882.822
2053.845
2207.785
2266.038
2091.966
1707.055
1325.972
1122.41
1086.136
1000.444
881.108
679.615
515.887
357.067
264.234
240.944
341.64
586.28
973.242
1189.179
1257.868
1081.203
1071.763
1289.583
1549.675
1712.534
2014.357
2217.261
2062.138
1811.382
1575.709
1270.828
977.304
689.002
515.958
368.689
293.907
250.103
435.606
1227.178
2159.316
2430.037
2104.666
1683.722
1516.304
1598.779
1768.813
1655.687
1507.99
1673.58
2199.641
2759.683
2949.874
2505.807
1936.402
1554.091
1239.618
912.143
649.262
467.733
339.797
287.002
457.138
1250.527
2191.367
2497.57
2176.06
1745.234
1563.281
1641.049
1809.32
1694.761
1548.447
1707.505
2209.925
2745.926
2938.818
2496.671
1936.559
1557.401
1241.492
916.26
652.557
468.895
338.011
284.957
453.885
1241.77
2165.096
2447.706
2150.255
1740.361
1571.228
1654.458
1818.614
1692.151
1539.785
1712.912
2222.514
2760.57
2929.968
2473.07
1911.925
1530.96
1225.917
903.202
643.133
462.459
336.172
285.155
456.237
1245.582
2161.435
2446.766
2152.181
1749.608
1583.429
1649.156
1813.813
1690.518
1541.034
1698.067
2191.504
2711.017
2871.413
2426.586
1875.685
1516.124
1215.913
897.844
642.118
463.119
336.168
279.722
417.218
1098.643
1882.052
2125.313
1920.795
1634.982
1597.185
1688.274
1792.265
1666.844
1576.073
1882.387
2549.171
2993.192
2995.631
2436.097
1863.609
1522.45
1246.77
1094.018
891.12
622.57
450.008
321.6
281.079
376.672
617.9
959.985
1252.83
1678.617
1723.32
1637.244
1575.907
1768.793
1882.822
2053.845
2207.785
2266.038
2091.966
1707.055
1325.972
1122.41
1086.136
1000.444
881.108
679.615
515.887
357.067
264.234
240.944
341.64
586.28
973.242
1189.179
1257.868
1081.203
1071.763
1289.583
1549.675
1712.534
2014.357
2217.261
2062.138
1811.382
1575.709
1270.828
977.304
689.002
515.958
368.689
293.907
250.103
435.606
1227.178
2159.316
2430.037
2104.666
1683.722
1516.304
1598.779
1768.813
1655.687
1507.99
1673.58
2199.641
2759.683
2949.874
2505.807
1936.402
1554.091
1239.618
912.143
649.262
467.733
339.797
287.002
457.138
1250.527
2191.367
2497.57
2176.06
1745.234
1563.281
1641.049
1809.32
1694.761
1548.447
1707.505
2209.925
2745.926
2938.818
2496.671
1936.559
1557.401
1241.492
916.26
652.557
468.895
338.011
284.957
453.885
1241.77
2165.096
2447.706
2150.255
1740.361
1571.228
1654.458
1818.614
1692.151
1539.785
1712.912
2222.514
2760.57
2929.968
2473.07
1911.925
1530.96
1225.917
903.202
643.133
462.459
336.172
285.155
456.237
1245.582
2161.435
2446.766
2152.181
1749.608
1583.429
1649.156
1813.813
1690.518
1541.034
1698.067
2191.504
2711.017
2871.413
2426.586
1875.685
1516.124
1215.913
897.844
642.118
463.119
336.168
279.722
417.218
1098.643
1882.052
2125.313
1920.795
1634.982
1597.185
1688.274
1792.265
1666.844
1576.073
1882.387
2549.171
2993.192
2995.631
2436.097
1863.609
1522.45
1246.77
1094.018
891.12
622.57
450.008
321.6
281.079
376.672
617.9
959.985
1252.83
1678.617
1723.32
1637.244
1575.907
1768.793
1882.822
2053.845
2207.785
2266.038
2091.966
1707.055
1325.972
1122.41
1086.136
1000.444
881.108
679.615
515.887
357.067
264.234
240.944
341.64
586.28
973.242
1189.179
1257.868
1081.203
1071.763
1289.583
1549.675
1712.534
2014.357
2217.261
2062.138
1811.382
1575.709
1270.828
977.304
689.002
515.958
368.689
293.907
250.103
435.606
1227.178
2159.316
2430.037
2104.666
1683.722
1516.304
1598.779
1768.813
1655.687
1507.99
1673.58
2199.641
2759.683
2949.874
2505.807
1936.402
1554.091
1239.618
912.143
649.262
467.733
339.797
287.002
457.138
1250.527
2191.367
2497.57
2176.06
1745.234
1563.281
1641.049
1809.32
1694.761
1548.447
1707.505
2209.925
2745.926
2938.818
2496.671
1936.559
1557.401
1241.492
916.26
652.557
468.895
338.011
284.957
453.885
1241.77
2165.096
2447.706
2150.255
1740.361
1571.228
1654.458
1818.614
1692.151
1539.785
1712.912
2222.514
2760.57
2929.968
2473.07
1911.925
1530.96
1225.917
903.202
643.133
462.459
336.172
285.155
456.237
1245.582
2161.435
2446.766
2152.181
1749.608
1583.429
1649.156
1813.813
1690.518
1541.034
1698.067
2191.504
2711.017
2871.413
2426.586
1875.685
1516.124
1215.913
897.844
642.118
463.119
336.168
279.722
417.218
1098.643
1882.052
2125.313
1920.795
1634.982
1597.185
1688.274
1792.265
1666.844
1576.073
1882.387
2549.171
2993.192
2995.631
2436.097
1863.609
1522.45
1246.77
1094.018
891.12
622.57
450.008
321.6
281.079
376.672
617.9
959.985
1252.83
1678.617
1723.32
1637.244
1575.907
1768.793
1882.822
2053.845
2207.785
2266.038
2091.966
1707.055
1325.972
1122.41
